Source_Distance(m), Centroid_Error(m), Confidence_Radius(m)
0.000000, 0.016684, 0.114582
0.007078, 0.013877, 0.118518
0.014156, 0.011135, 0.122492
0.021234, 0.008463, 0.126495
0.028313, 0.005856, 0.130520
0.035391, 0.003324, 0.134555
0.042469, 0.000860, 0.138590
0.049547, 0.001524, 0.142614
0.056625, 0.003834, 0.146612
0.063703, 0.006061, 0.150575
0.070781, 0.008207, 0.154486
0.077860, 0.010268, 0.158332
0.084938, 0.012242, 0.162098
0.092016, 0.014130, 0.165767
0.099094, 0.015926, 0.169329
0.106172, 0.017433, 0.172901
0.113250, 0.018114, 0.176830
0.120328, 0.018710, 0.180588
0.127407, 0.019220, 0.184161
0.134485, 0.019642, 0.187537
0.141563, 0.019983, 0.190701
0.148641, 0.020241, 0.193641
0.155719, 0.020421, 0.196346
0.162797, 0.020522, 0.198807
0.169876, 0.020548, 0.201013
0.176954, 0.020503, 0.202955
0.184032, 0.020389, 0.204626
0.191110, 0.020208, 0.206020
0.198188, 0.019964, 0.207131
0.205266, 0.019660, 0.207958
0.212344, 0.019300, 0.208497
0.219423, 0.018887, 0.208751
0.226501, 0.018426, 0.208721
0.233579, 0.017922, 0.208418
0.240657, 0.017380, 0.207847
0.247735, 0.016807, 0.207024
0.254813, 0.016208, 0.205967
0.261891, 0.015590, 0.204695
0.268970, 0.014960, 0.203232
0.276048, 0.014325, 0.201604
0.283126, 0.013690, 0.199836
0.290204, 0.013061, 0.197956
0.297282, 0.012444, 0.195990
0.304360, 0.011843, 0.193960
0.311438, 0.011262, 0.191889
0.318517, 0.010703, 0.189795
0.325595, 0.010168, 0.187694
0.332673, 0.009658, 0.185599
0.339751, 0.009176, 0.183520
0.346829, 0.008721, 0.182039
0.353907, 0.008293, 0.183506
0.360985, 0.007891, 0.184992
0.368064, 0.007518, 0.186496
0.375142, 0.007171, 0.188007
0.382220, 0.006849, 0.189522
0.389298, 0.006553, 0.191034
0.396376, 0.006281, 0.192535
0.403454, 0.006033, 0.194021
0.410532, 0.005810, 0.195485
0.417611, 0.005609, 0.196919
0.424689, 0.005431, 0.198319
0.431767, 0.005276, 0.199678
0.438845, 0.005142, 0.200989
0.445923, 0.005028, 0.202249
0.453001, 0.004935, 0.203451
0.460079, 0.004861, 0.204592
0.467158, 0.004806, 0.205667
0.474236, 0.004768, 0.206672
0.481314, 0.004747, 0.207604
0.488392, 0.004741, 0.208460
0.495470, 0.004750, 0.209238
0.502548, 0.004772, 0.209936
0.509627, 0.004806, 0.210551
0.516705, 0.004850, 0.211083
0.523783, 0.004902, 0.211531
0.530861, 0.004962, 0.211895
0.537939, 0.005028, 0.212173
0.545017, 0.005098, 0.212367
0.552095, 0.005170, 0.212476
0.559174, 0.005243, 0.212501
0.566252, 0.005314, 0.212443
0.573330, 0.005383, 0.212302
0.580408, 0.005447, 0.212079
0.587486, 0.005505, 0.211776
0.594564, 0.005554, 0.211394
0.601642, 0.005595, 0.210933
0.608721, 0.005624, 0.210397
0.615799, 0.005642, 0.209787
0.622877, 0.005647, 0.209104
0.629955, 0.005638, 0.208351
0.637033, 0.005614, 0.207530
0.644111, 0.005576, 0.206645
0.651189, 0.005523, 0.205697
0.658268, 0.005457, 0.204691
0.665346, 0.005377, 0.203629
0.672424, 0.005285, 0.202516
0.679502, 0.005182, 0.201355
0.686580, 0.005070, 0.200152
0.693658, 0.004951, 0.198910
0.700736, 0.004827, 0.197634
0.707815, 0.004701, 0.196329
0.714893, 0.004576, 0.195000
0.721971, 0.004453, 0.193652
0.729049, 0.004333, 0.192286
0.736127, 0.004224, 0.192164
0.743205, 0.004125, 0.193313
0.750283, 0.004038, 0.194414
0.757362, 0.003965, 0.195461
0.764440, 0.003905, 0.196451
0.771518, 0.003862, 0.197380
0.778596, 0.003837, 0.198243
0.785674, 0.003828, 0.199039
0.792752, 0.003834, 0.199765
0.799830, 0.003857, 0.200419
0.806909, 0.003897, 0.200994
0.813987, 0.003951, 0.201493
0.821065, 0.004020, 0.201912
0.828143, 0.004099, 0.202250
0.835221, 0.004192, 0.202504
0.842299, 0.004295, 0.202672
0.849378, 0.004406, 0.202755
0.856456, 0.004524, 0.202750
0.863534, 0.004649, 0.202657
0.870612, 0.004777, 0.202474
0.877690, 0.004908, 0.202201
0.884768, 0.005040, 0.201838
0.891846, 0.005173, 0.201385
0.898925, 0.005303, 0.200840
0.906003, 0.005431, 0.200205
0.913081, 0.005555, 0.199481
0.920159, 0.005674, 0.198668
0.927237, 0.005787, 0.197767
0.934315, 0.005894, 0.196779
0.941393, 0.005994, 0.195709
0.948472, 0.006085, 0.194557
0.955550, 0.006168, 0.193327
0.962628, 0.006242, 0.192021
0.969706, 0.006308, 0.190644
0.976784, 0.006365, 0.189199
0.983862, 0.006413, 0.187692
0.990940, 0.006451, 0.186125
0.998019, 0.006482, 0.184506
1.005097, 0.006504, 0.182837
1.012175, 0.006519, 0.181126
1.019253, 0.006526, 0.179377
1.026331, 0.006527, 0.177596
1.033409, 0.006520, 0.175788
1.040487, 0.006508, 0.173958
1.047566, 0.006492, 0.172112
1.054644, 0.006470, 0.170254
1.061722, 0.006444, 0.168390
1.068800, 0.006415, 0.166524
1.075878, 0.006383, 0.164659
1.082956, 0.006348, 0.162801
1.090034, 0.006311, 0.160952
1.097113, 0.006273, 0.159116
1.104191, 0.006233, 0.157297
1.111269, 0.006193, 0.155496
1.118347, 0.006152, 0.153716
1.125425, 0.006111, 0.151959
1.132503, 0.006070, 0.150227
1.139581, 0.006030, 0.148522
1.146660, 0.005990, 0.146843
1.153738, 0.005950, 0.145833
1.160816, 0.005912, 0.146408
1.167894, 0.005875, 0.146984
1.174972, 0.005839, 0.147561
1.182050, 0.005804, 0.148139
1.189129, 0.005770, 0.148720
1.196207, 0.005738, 0.149302
1.203285, 0.005708, 0.149886
1.210363, 0.005678, 0.150472
1.217441, 0.005651, 0.151061
1.224519, 0.005624, 0.151653
1.231597, 0.005600, 0.152248
1.238676, 0.005577, 0.152845
1.245754, 0.005555, 0.153445
1.252832, 0.005535, 0.154049
1.259910, 0.005516, 0.154656
1.266988, 0.005499, 0.155266
1.274066, 0.005484, 0.155880
1.281144, 0.005469, 0.156497
1.288223, 0.005457, 0.157117
1.295301, 0.005445, 0.157741
1.302379, 0.005435, 0.158369
1.309457, 0.005426, 0.159000
1.316535, 0.005419, 0.159635
1.323613, 0.005413, 0.160274
1.330691, 0.005408, 0.160916
1.337770, 0.005404, 0.161562
1.344848, 0.005401, 0.162212
1.351926, 0.005400, 0.162865
1.359004, 0.005399, 0.163522
1.366082, 0.005400, 0.164183
1.373160, 0.005402, 0.164848
1.380238, 0.005405, 0.165517
1.387317, 0.005409, 0.166189
1.394395, 0.005413, 0.166865
1.401473, 0.005419, 0.167544
1.408551, 0.005425, 0.168228
1.415629, 0.005433, 0.168914
1.422707, 0.005441, 0.169605
1.429785, 0.005450, 0.170299
1.436864, 0.005460, 0.170997
1.443942, 0.005471, 0.171699
1.451020, 0.005483, 0.172404
1.458098, 0.005495, 0.173112
1.465176, 0.005508, 0.173824
1.472254, 0.005521, 0.174540
1.479333, 0.005536, 0.175259
1.486411, 0.005551, 0.175981
1.493489, 0.005566, 0.176707
1.500567, 0.005583, 0.177436
1.507645, 0.005599, 0.178169
1.514723, 0.005617, 0.178905
1.521801, 0.005635, 0.179644
1.528880, 0.005653, 0.180386
1.535958, 0.005673, 0.181132
1.543036, 0.005692, 0.181881
1.550114, 0.005712, 0.182633
1.557192, 0.005733, 0.183388
1.564270, 0.005754, 0.184146
1.571348, 0.005776, 0.184908
1.578427, 0.005798, 0.185672
1.585505, 0.005820, 0.186440
1.592583, 0.005843, 0.187210
1.599661, 0.005866, 0.187983
1.606739, 0.005890, 0.188760
1.613817, 0.005914, 0.189539
1.620895, 0.005938, 0.190321
1.627974, 0.005963, 0.191106
1.635052, 0.005989, 0.191893
1.642130, 0.006014, 0.192684
1.649208, 0.006040, 0.193477
1.656286, 0.006066, 0.194273
1.663364, 0.006093, 0.195071
1.670442, 0.006120, 0.195872
1.677521, 0.006147, 0.196676
1.684599, 0.006174, 0.197482
1.691677, 0.006202, 0.198291
1.698755, 0.006230, 0.199103
1.705833, 0.006259, 0.199917
1.712911, 0.006287, 0.200733
1.719989, 0.006316, 0.201552
1.727068, 0.006345, 0.202373
1.734146, 0.006375, 0.203196
1.741224, 0.006404, 0.204022
1.748302, 0.006434, 0.204851
1.755380, 0.006464, 0.205681
1.762458, 0.006495, 0.206514
1.769536, 0.006525, 0.207349
1.776615, 0.006556, 0.208186
1.783693, 0.006587, 0.209026
1.790771, 0.006618, 0.209867
1.797849, 0.006650, 0.210711
1.804927, 0.006681, 0.211557
1.812005, 0.006713, 0.212405
1.819084, 0.006745, 0.213255
1.826162, 0.006777, 0.214107
1.833240, 0.006810, 0.214961
1.840318, 0.006842, 0.215817
1.847396, 0.006875, 0.216675
1.854474, 0.006908, 0.217535
1.861552, 0.006941, 0.218397
1.868631, 0.006974, 0.219261
1.875709, 0.007007, 0.220127
1.882787, 0.007041, 0.220994
1.889865, 0.007074, 0.221864
1.896943, 0.007108, 0.222735
1.904021, 0.007142, 0.223608
1.911099, 0.007176, 0.224483
1.918178, 0.007210, 0.225359
1.925256, 0.007245, 0.226238
1.932334, 0.007279, 0.227118
1.939412, 0.007314, 0.227999
1.946490, 0.007348, 0.228882
1.953568, 0.007383, 0.229767
1.960646, 0.007418, 0.230654
1.967725, 0.007453, 0.231542
1.974803, 0.007488, 0.232432
1.981881, 0.007524, 0.233323
1.988959, 0.007559, 0.234216
1.996037, 0.007595, 0.235111
2.003115, 0.007630, 0.236007
2.010193, 0.007666, 0.236904
2.017272, 0.007702, 0.237803
2.024350, 0.007738, 0.238704
2.031428, 0.007774, 0.239606
2.038506, 0.007810, 0.240509
2.045584, 0.007846, 0.241414
2.052662, 0.007882, 0.242320
2.059740, 0.007919, 0.243228
2.066819, 0.007955, 0.244137
2.073897, 0.007991, 0.245047
2.080975, 0.008028, 0.245959
2.088053, 0.008065, 0.246872
2.095131, 0.008102, 0.247786
2.102209, 0.008138, 0.248702
2.109287, 0.008175, 0.249618
2.116366, 0.008212, 0.250537
2.123444, 0.008249, 0.251456
2.130522, 0.008287, 0.252377
2.137600, 0.008324, 0.253298
2.144678, 0.008361, 0.254221
2.151756, 0.008398, 0.255146
2.158835, 0.008436, 0.256071
2.165913, 0.008473, 0.256998
2.172991, 0.008511, 0.257926
2.180069, 0.008549, 0.258855
2.187147, 0.008586, 0.259785
2.194225, 0.008624, 0.260716
2.201303, 0.008662, 0.261648
2.208382, 0.008700, 0.262582
2.215460, 0.008738, 0.263516
2.222538, 0.008776, 0.264452
2.229616, 0.008814, 0.265388
2.236694, 0.008852, 0.266326
2.243772, 0.008890, 0.267265
2.250850, 0.008928, 0.268205
2.257929, 0.008966, 0.269145
2.265007, 0.009005, 0.270087
2.272085, 0.009043, 0.271030
2.279163, 0.009081, 0.271974
2.286241, 0.009120, 0.272918
2.293319, 0.009158, 0.273864
2.300397, 0.009197, 0.274811
2.307476, 0.009235, 0.275758
2.314554, 0.009274, 0.276707
2.321632, 0.009313, 0.277657
2.328710, 0.009351, 0.278607
2.335788, 0.009390, 0.279558
2.342866, 0.009429, 0.280510
2.349944, 0.009468, 0.281464
2.357023, 0.009507, 0.282418
2.364101, 0.009546, 0.283372
2.371179, 0.009585, 0.284328
2.378257, 0.009624, 0.285285
2.385335, 0.009663, 0.286242
2.392413, 0.009702, 0.287200
2.399491, 0.009741, 0.288159
2.406570, 0.009780, 0.289119
2.413648, 0.009819, 0.290080
2.420726, 0.009858, 0.291042
2.427804, 0.009898, 0.292004
2.434882, 0.009937, 0.292967
2.441960, 0.009976, 0.293931
2.449039, 0.010016, 0.294896
2.456117, 0.010055, 0.295861
2.463195, 0.010095, 0.296827
2.470273, 0.010134, 0.297794
2.477351, 0.010174, 0.298762
2.484429, 0.010213, 0.299730
2.491507, 0.010253, 0.300699
2.498586, 0.010292, 0.301669
2.505664, 0.010332, 0.302640
2.512742, 0.010371, 0.303611
2.519820, 0.010411, 0.304583
2.526898, 0.010451, 0.305555
2.533976, 0.010491, 0.306529
2.541054, 0.010530, 0.307503
2.548133, 0.010570, 0.308478
2.555211, 0.010610, 0.309453
2.562289, 0.010650, 0.310429
2.569367, 0.010690, 0.311406
2.576445, 0.010729, 0.312383
2.583523, 0.010769, 0.313361
2.590601, 0.010809, 0.314339
2.597680, 0.010849, 0.315319
2.604758, 0.010889, 0.316299
2.611836, 0.010929, 0.317279
2.618914, 0.010969, 0.318260
2.625992, 0.011009, 0.319242
2.633070, 0.011049, 0.320224
2.640148, 0.011089, 0.321207
2.647227, 0.011130, 0.322190
2.654305, 0.011170, 0.323174
2.661383, 0.011210, 0.324159
2.668461, 0.011250, 0.325144
2.675539, 0.011290, 0.326130
2.682617, 0.011330, 0.327116
2.689695, 0.011371, 0.328103
2.696774, 0.011411, 0.329091
2.703852, 0.011451, 0.330079
2.710930, 0.011492, 0.331067
2.718008, 0.011532, 0.332056
2.725086, 0.011572, 0.333046
2.732164, 0.011613, 0.334036
2.739242, 0.011653, 0.335027
2.746321, 0.011693, 0.336018
2.753399, 0.011734, 0.337010
2.760477, 0.011774, 0.338002
2.767555, 0.011815, 0.338995
2.774633, 0.011855, 0.339988
2.781711, 0.011896, 0.340982
2.788790, 0.011936, 0.341976
2.795868, 0.011977, 0.342970
2.802946, 0.012017, 0.343966
2.810024, 0.012058, 0.344961
2.817102, 0.012098, 0.345957
2.824180, 0.012139, 0.346954
2.831258, 0.012180, 0.347951
2.838337, 0.012220, 0.348949
2.845415, 0.012261, 0.349947
2.852493, 0.012301, 0.350945
2.859571, 0.012342, 0.351944
2.866649, 0.012383, 0.352943
2.873727, 0.012423, 0.353943
2.880805, 0.012464, 0.354943
2.887884, 0.012505, 0.355944
2.894962, 0.012546, 0.356945
2.902040, 0.012586, 0.357947
2.909118, 0.012627, 0.358949
2.916196, 0.012668, 0.359951
2.923274, 0.012709, 0.360954
2.930352, 0.012750, 0.361957
2.937431, 0.012790, 0.362961
2.944509, 0.012831, 0.363965
2.951587, 0.012872, 0.364969
2.958665, 0.012913, 0.365974
2.965743, 0.012954, 0.366979
2.972821, 0.012995, 0.367985
2.979899, 0.013036, 0.368991
2.986978, 0.013076, 0.369997
2.994056, 0.013117, 0.371004
3.001134, 0.013158, 0.372011
3.008212, 0.013199, 0.373019
3.015290, 0.013240, 0.374027
3.022368, 0.013281, 0.375035
3.029446, 0.013322, 0.376043
3.036525, 0.013363, 0.377053
3.043603, 0.013404, 0.378062
3.050681, 0.013445, 0.379072
3.057759, 0.013486, 0.380082
3.064837, 0.013527, 0.381092
3.071915, 0.013568, 0.382103
3.078993, 0.013609, 0.383114
3.086072, 0.013650, 0.384126
3.093150, 0.013692, 0.385138
3.100228, 0.013733, 0.386150
3.107306, 0.013774, 0.387162
3.114384, 0.013815, 0.388175
3.121462, 0.013856, 0.389188
3.128541, 0.013897, 0.390202
3.135619, 0.013938, 0.391216
3.142697, 0.013979, 0.392230
3.149775, 0.014021, 0.393245
3.156853, 0.014062, 0.394259
3.163931, 0.014103, 0.395275
3.171009, 0.014144, 0.396290
3.178088, 0.014185, 0.397306
3.185166, 0.014226, 0.398322
3.192244, 0.014268, 0.399338
3.199322, 0.014309, 0.400355
3.206400, 0.014350, 0.401372
3.213478, 0.014391, 0.402389
3.220556, 0.014433, 0.403407
3.227635, 0.014474, 0.404425
3.234713, 0.014515, 0.405443
3.241791, 0.014556, 0.406462
3.248869, 0.014598, 0.407480
3.255947, 0.014639, 0.408500
3.263025, 0.014680, 0.409519
3.270103, 0.014722, 0.410539
3.277182, 0.014763, 0.411558
3.284260, 0.014804, 0.412579
3.291338, 0.014846, 0.413599
3.298416, 0.014887, 0.414620
3.305494, 0.014928, 0.415641
3.312572, 0.014970, 0.416662
3.319650, 0.015011, 0.417684
3.326729, 0.015052, 0.418706
3.333807, 0.015094, 0.419728
3.340885, 0.015135, 0.420750
3.347963, 0.015177, 0.421773
3.355041, 0.015218, 0.422796
3.362119, 0.015259, 0.423819
3.369197, 0.015301, 0.424842
3.376276, 0.015342, 0.425866
3.383354, 0.015384, 0.426890
3.390432, 0.015425, 0.427914
3.397510, 0.015466, 0.428938
3.404588, 0.015508, 0.429963
3.411666, 0.015549, 0.430988
3.418744, 0.015591, 0.432013
3.425823, 0.015632, 0.433039
3.432901, 0.015674, 0.434064
3.439979, 0.015715, 0.435090
3.447057, 0.015757, 0.436116
3.454135, 0.015798, 0.437143
3.461213, 0.015840, 0.438169
3.468292, 0.015881, 0.439196
3.475370, 0.015923, 0.440223
3.482448, 0.015964, 0.441250
3.489526, 0.016006, 0.442278
3.496604, 0.016047, 0.443305
3.503682, 0.016089, 0.444333
3.510760, 0.016131, 0.445362
3.517839, 0.016172, 0.446390
3.524917, 0.016214, 0.447419
3.531995, 0.016255, 0.448447
3.539073, 0.016297, 0.449476
3.546151, 0.016338, 0.450506
3.553229, 0.016380, 0.451535
3.560307, 0.016422, 0.452565
3.567386, 0.016463, 0.453595
3.574464, 0.016505, 0.454625
3.581542, 0.016546, 0.455655
3.588620, 0.016588, 0.456686
3.595698, 0.016630, 0.457716
3.602776, 0.016671, 0.458747
3.609854, 0.016713, 0.459778
3.616933, 0.016754, 0.460810
3.624011, 0.016796, 0.461841
3.631089, 0.016838, 0.462873
3.638167, 0.016879, 0.463905
3.645245, 0.016921, 0.464937
3.652323, 0.016963, 0.465969
3.659401, 0.017004, 0.467002
3.666480, 0.017046, 0.468035
3.673558, 0.017088, 0.469068
3.680636, 0.017129, 0.470101
3.687714, 0.017171, 0.471134
3.694792, 0.017213, 0.472167
3.701870, 0.017254, 0.473201
3.708948, 0.017296, 0.474235
3.716027, 0.017338, 0.475269
3.723105, 0.017380, 0.476303
3.730183, 0.017421, 0.477337
3.737261, 0.017463, 0.478372
3.744339, 0.017505, 0.479407
3.751417, 0.017546, 0.480442
3.758496, 0.017588, 0.481477
3.765574, 0.017630, 0.482512
3.772652, 0.017672, 0.483547
3.779730, 0.017713, 0.484583
3.786808, 0.017755, 0.485619
3.793886, 0.017797, 0.486655
3.800964, 0.017839, 0.487691
3.808043, 0.017880, 0.488727
3.815121, 0.017922, 0.489763
3.822199, 0.017964, 0.490800
3.829277, 0.018006, 0.491837
3.836355, 0.018048, 0.492874
3.843433, 0.018089, 0.493911
3.850511, 0.018131, 0.494948
3.857590, 0.018173, 0.495986
3.864668, 0.018215, 0.497023
3.871746, 0.018257, 0.498061
3.878824, 0.018298, 0.499099
3.885902, 0.018340, 0.500137
3.892980, 0.018382, 0.501175
3.900058, 0.018424, 0.502214
3.907137, 0.018466, 0.503252
3.914215, 0.018507, 0.504291
3.921293, 0.018549, 0.505330
3.928371, 0.018591, 0.506369
3.935449, 0.018633, 0.507408
3.942527, 0.018675, 0.508447
3.949605, 0.018717, 0.509486
3.956684, 0.018759, 0.510526
3.963762, 0.018800, 0.511566
3.970840, 0.018842, 0.512606
3.977918, 0.018884, 0.513646
3.984996, 0.018926, 0.514686
3.992074, 0.018968, 0.515726
3.999152, 0.019010, 0.516767
4.006231, 0.019052, 0.517807
4.013309, 0.019093, 0.518848
4.020387, 0.019135, 0.519889
4.027465, 0.019177, 0.520930
4.034543, 0.019219, 0.521971
4.041621, 0.019261, 0.523012
4.048699, 0.019303, 0.524054
4.055778, 0.019345, 0.525095
4.062856, 0.019387, 0.526137
4.069934, 0.019429, 0.527179
4.077012, 0.019471, 0.528221
4.084090, 0.019512, 0.529263
4.091168, 0.019554, 0.530305
4.098247, 0.019596, 0.531348
4.105325, 0.019638, 0.532390
4.112403, 0.019680, 0.533433
4.119481, 0.019722, 0.534475
4.126559, 0.019764, 0.535518
4.133637, 0.019806, 0.536561
4.140715, 0.019848, 0.537604
4.147794, 0.019890, 0.538648
4.154872, 0.019932, 0.539691
4.161950, 0.019974, 0.540735
4.169028, 0.020016, 0.541778
4.176106, 0.020058, 0.542822
4.183184, 0.020100, 0.543866
4.190262, 0.020142, 0.544910
4.197341, 0.020184, 0.545954
4.204419, 0.020226, 0.546998
4.211497, 0.020267, 0.548043
4.218575, 0.020309, 0.549087
4.225653, 0.020351, 0.550132
4.232731, 0.020393, 0.551176
4.239809, 0.020435, 0.552221
4.246888, 0.020477, 0.553266
4.253966, 0.020519, 0.554311
4.261044, 0.020561, 0.555356
4.268122, 0.020603, 0.556402
4.275200, 0.020645, 0.557447
4.282278, 0.020687, 0.558493
4.289356, 0.020729, 0.559538
4.296435, 0.020771, 0.560584
4.303513, 0.020813, 0.561630
4.310591, 0.020855, 0.562676
4.317669, 0.020897, 0.563722
4.324747, 0.020939, 0.564768
4.331825, 0.020981, 0.565815
4.338903, 0.021023, 0.566861
4.345982, 0.021066, 0.567907
4.353060, 0.021108, 0.568954
4.360138, 0.021150, 0.570001
4.367216, 0.021192, 0.571048
4.374294, 0.021234, 0.572095
4.381372, 0.021276, 0.573142
4.388450, 0.021318, 0.574189
4.395529, 0.021360, 0.575236
4.402607, 0.021402, 0.576283
4.409685, 0.021444, 0.577331
4.416763, 0.021486, 0.578378
4.423841, 0.021528, 0.579426
4.430919, 0.021570, 0.580474
4.437998, 0.021612, 0.581522
4.445076, 0.021654, 0.582570
4.452154, 0.021696, 0.583618
4.459232, 0.021738, 0.584666
4.466310, 0.021780, 0.585714
4.473388, 0.021822, 0.586763
4.480466, 0.021864, 0.587811
4.487545, 0.021907, 0.588860
4.494623, 0.021949, 0.589908
4.501701, 0.021991, 0.590957
4.508779, 0.022033, 0.592006
4.515857, 0.022075, 0.593055
4.522935, 0.022117, 0.594104
4.530013, 0.022159, 0.595153
4.537092, 0.022201, 0.596202
4.544170, 0.022243, 0.597251
4.551248, 0.022285, 0.598301
4.558326, 0.022327, 0.599350
4.565404, 0.022370, 0.600400
4.572482, 0.022412, 0.601450
4.579560, 0.022454, 0.602499
4.586639, 0.022496, 0.603549
4.593717, 0.022538, 0.604599
4.600795, 0.022580, 0.605649
4.607873, 0.022622, 0.606699
4.614951, 0.022664, 0.607749
4.622029, 0.022706, 0.608800
4.629107, 0.022749, 0.609850
4.636186, 0.022791, 0.610901
4.643264, 0.022833, 0.611951
4.650342, 0.022875, 0.613002
4.657420, 0.022917, 0.614053
4.664498, 0.022959, 0.615103
4.671576, 0.023001, 0.616154
4.678654, 0.023043, 0.617205
4.685733, 0.023086, 0.618256
4.692811, 0.023128, 0.619307
4.699889, 0.023170, 0.620359
4.706967, 0.023212, 0.621410
4.714045, 0.023254, 0.622461
4.721123, 0.023296, 0.623513
4.728201, 0.023339, 0.624564
4.735280, 0.023381, 0.625616
4.742358, 0.023423, 0.626668
4.749436, 0.023465, 0.627720
4.756514, 0.023507, 0.628771
4.763592, 0.023549, 0.629823
4.770670, 0.023591, 0.630875
4.777749, 0.023634, 0.631928
4.784827, 0.023676, 0.632980
4.791905, 0.023718, 0.634032
4.798983, 0.023760, 0.635084
4.806061, 0.023802, 0.636137
4.813139, 0.023844, 0.637189
4.820217, 0.023887, 0.638242
4.827296, 0.023929, 0.639295
4.834374, 0.023971, 0.640347
4.841452, 0.024013, 0.641400
4.848530, 0.024055, 0.642453
4.855608, 0.024098, 0.643506
